arc_length,density,velocity_0,velocity_1,velocity_2
0,0.00115392734519,1.7799323364e-16,8.89966168198e-17,0
0.0032000541687,0.0011540189871,1.21034433436e-16,0.00034673779076,-0.0222841670643
0.00639998912811,0.0011541106256,6.40777550763e-17,0.000693462664749,-0.0445675039928
0.00960004329681,0.00115420226751,7.11895487225e-18,0.00104020045551,-0.0668516710571
0.0127999782562,0.0011523189798,-5.01191995888e-17,0.00138910344856,-0.0696369755551
0.0160000324249,0.00115015350764,-1.07399694684e-16,0.00173833057952,-0.0696371285058
0.0191999673843,0.00114798811614,-1.64678055951e-16,0.00208754470098,-0.0696372814507
0.022400021553,0.00114583216593,-1.57645171059e-16,0.00243864763987,-0.0696374351629
0.0255999565125,0.00114367946999,-1.29174887949e-16,0.00279036276481,-0.0696375891232
0.0288000106812,0.00114152669386,-1.00703544217e-16,0.00314209099243,-0.0696377430893
0.0319999456406,0.00113938188608,-7.2022140579e-17,0.00349537660708,-0.0696378977065
0.0351999998093,0.00113724173154,-4.32129892157e-17,0.00384961772822,-0.0696380527237
0.038400053978,0.00113510157701,-1.44038378523e-17,0.00420385884936,-0.0696382077409
0.0415999889374,0.00113296777585,1.45746372148e-17,0.00455934911028,-0.069638363296
0.0448000431061,0.00113084016891,4.37245903333e-17,0.00491611496232,-0.0696385194005
0.0479999780655,0.00112871264123,7.28734575497e-17,0.00527286752403,-0.0696386754992
0.0512000322342,0.00112658971211,5.81690722159e-17,0.00563058461475,-0.0696388320251
0.0543999671936,0.001124474658,-2.96213360698e-17,0.00598987369085,-0.0696389892476
0.0576000213623,0.00112235952509,-1.17415014869e-16,0.00634917615179,-0.069639146476
0.0607999563217,0.00112024757099,-1.53852266015e-16,0.00670910231529,-0.0696393039886
0.0640000104904,0.00111814483898,-3.62189675892e-17,0.00707095330381,-0.0696394623777
0.0671999454498,0.00111604218531,8.1409948729e-17,0.00743279081257,-0.0696396207609
0.0703999996185,0.0011139409943,1.73257157274e-16,0.00779496185751,-0.0696397792997
0.0736000537872,0.00111185059048,8.45988548366e-17,0.00815937333311,-0.0696399388868
0.0767999887466,0.00110976026454,-4.05614487699e-18,0.00852377123357,-0.0696400984679
0.0800000429153,0.00110766986089,-9.27123774277e-17,0.00888818274511,-0.069640258055
0.0831999778748,0.0011055917904,-3.32021658946e-17,0.00925515303721,-0.0696404188718
0.0864000320435,0.0011035136425,2.63102626117e-17,0.0096221370003,-0.0696405796945
0.0895999670029,0.00110143557201,8.58204741448e-17,0.0099891072924,-0.0696407405112
0.0928000211716,0.00109936808506,6.71469673917e-17,0.0103583526987,-0.0696409024483
0.095999956131,0.00109730219817,3.73043803233e-17,0.0107279074234,-0.0696410645386
0.0992000102997,0.00109523623432,7.46068150917e-18,0.0110974759153,-0.069641226635
0.102399945259,0.00109317943155,2.26466751968e-17,0.0114689780229,-0.0696413897092
0.105599999428,0.00109112558032,5.28434138936e-17,0.0118411431262,-0.0696415531175
0.108800053596,0.00108907172909,8.30401525905e-17,0.0122133082295,-0.0696417165259
0.111999988556,0.00108702548022,1.1345836533e-16,0.0125870898932,-0.0696418807723
0.115200042725,0.0010849836706,1.44011269961e-16,0.0129618637315,-0.0696420455313
0.118399977684,0.00108294193704,1.74563036426e-16,0.0133366236086,-0.0696422102843
0.121600031853,0.00108090611294,1.74741503061e-16,0.0137127079029,-0.0696423757382
0.124799966812,0.00107887634994,1.44546939436e-16,0.0140900885822,-0.0696425418809
0.128000020981,0.00107684651133,1.14351250954e-16,0.0144674833204,-0.0696427080298
0.13119995594,0.00107482121091,8.4022344325e-17,0.0148458513639,-0.0696428747084
0.134400010109,0.00107280327311,5.34683894804e-17,0.0152258792082,-0.0696430422866
0.137599945068,0.00107078541049,2.29155728401e-17,0.0156058928956,-0.0696432098585
0.140799999237,0.00106877043041,-1.54574823915e-17,0.0159865820691,-0.0696433778039
0.144000053406,0.00106676432366,-7.7288275709e-17,0.0163692552673,-0.0696435468512
0.147199988365,0.00106475829165,-1.39116765689e-16,0.0167519142099,-0.0696437158921
0.150400042534,0.00106275365525,-1.89375943955e-16,0.0171349196459,-0.0696438851281
0.153599977493,0.00106075938448,-1.58644013303e-16,0.0175202361327,-0.0696440556783
0.156800031662,0.00105876503941,-1.27910937774e-16,0.0179055669739,-0.0696442262349
0.159999966621,0.00105677076863,-9.71790071214e-17,0.0182908834606,-0.0696443967851
0.16320002079,0.00105478811618,-6.60812927291e-17,0.0186788842509,-0.0696445688916
0.16639995575,0.0010528055377,-3.49847334014e-17,0.0190668706121,-0.0696447409916
0.169600009918,0.00105082288535,-3.88701561311e-18,0.0194548714272,-0.0696449130981
0.172799944878,0.00104885047765,2.75314223099e-17,0.0198452047589,-0.06964508659
0.175999999046,0.00104687944948,5.89970143199e-17,0.0202358879205,-0.0696452602873
0.179200053215,0.0010449084213,9.046260633e-17,0.0206265710821,-0.0696454339845
0.182399988174,0.00104294613339,2.7253811813e-17,0.0210192607196,-0.0696456088993
0.185600042343,0.00104098666123,-6.75140958392e-17,0.021412638642,-0.0696457842287
0.188799977303,0.00103902726207,-1.62278473172e-16,0.0218060019102,-0.0696459595515
0.192000031471,0.00103707497008,-1.78151054023e-16,0.0222010718448,-0.0696461359269
0.195199966431,0.00103512705876,-1.46687728478e-16,0.0225971422292,-0.0696463129234
0.198400020599,0.00103317907486,-1.1522323081e-16,0.0229932273686,-0.0696464899265
0.201599955559,0.00103123687375,-5.15490161678e-17,0.0233906575536,-0.0696466677809
0.204800009727,0.00102930031077,4.43399596496e-17,0.0237894624082,-0.0696468464997
0.207999944687,0.00102736381993,1.40225363385e-16,0.0241882524065,-0.0696470252119
0.211199998856,0.00102543151461,1.76137626942e-16,0.0245880818426,-0.0696472045901
0.214400053024,0.00102350630558,1.12086469098e-16,0.0249896189526,-0.0696473850671
0.217599987984,0.00102158116826,4.80376973058e-17,0.0253911411045,-0.0696475655374
0.220800042152,0.00101965878119,0,0.0257933644527,-0.0696477464646
0.223999977112,0.00101774493083,0,0.0261976313401,-0.0696479287357
0.227200031281,0.00101583100918,0,0.026601913288,-0.0696481110136
0.23039996624,0.00101391856135,-8.14816194572e-18,0.0270065248277,-0.0696482935152
0.233600020409,0.00101201586089,-7.33392252352e-17,0.0274135642378,-0.0696484776371
0.236799955368,0.00101011323132,-1.38527860009e-16,0.0278205884848,-0.0696486617521
0.240000009537,0.00100821053092,-2.0371831617e-16,0.0282276279079,-0.069648845874
0.243199944496,0.00100631905635,-1.38529681396e-16,0.0286374221809,-0.0696490318764
0.246399998665,0.00100442751131,-7.33386181063e-17,0.0290472317203,-0.0696492178858
0.249600052834,0.00100253596627,-8.14755481691e-18,0.0294570412597,-0.0696494038951
0.252799987793,0.00100065419527,-2.88579269035e-17,0.0298692704694,-0.0696495915874
0.256000041962,0.000998773740243,-6.18390510439e-17,0.0302818628473,-0.069649779528
0.259199976921,0.000996893355266,-9.48189465624e-17,0.0306944398551,-0.0696499674616
0.26240003109,0.000995021168967,-7.83284612811e-17,0.0311091289224,-0.0696501568839
0.265599966049,0.000993151808569,-4.53485657626e-17,0.0315245014163,-0.0696503467929
0.268800020218,0.00099128237853,-1.23674416222e-17,0.0319398893843,-0.069650536709
0.271999955177,0.000989419868101,2.08562911826e-17,0.0323570170547,-0.0696507278805
0.275200009346,0.000987561398412,5.42275691518e-17,0.0327752134073,-0.0696509198167
0.278399944305,0.000985702997955,8.75976039651e-17,0.033193394181,-0.0696511117457
0.281599998474,0.000983849976235,7.08142635048e-17,0.0336130011245,-0.0696513047143
0.284800052643,0.000982002402635,3.87490331549e-18,0.0340340186985,-0.0696514987153
0.287999987602,0.000980154897862,-6.30619632306e-17,0.0344550205885,-0.0696516927092
0.291200041771,0.000978311386434,-9.23101549857e-17,0.0348771009751,-0.0696518875016
0.29439997673,0.000976474713464,-5.87433232529e-17,0.0353009368606,-0.0696520836055
0.297600030899,0.00097463797207,-2.51752410328e-17,0.0357247885356,-0.0696522797168
0.300799965858,0.000972803991136,8.49085991407e-18,0.0361493361405,-0.0696524763597
0.304000020027,0.000970978018439,4.24560393305e-17,0.036576034839,-0.0696526746267
0.307199954987,0.000969152113764,7.64199534668e-17,0.0370027176419,-0.0696528728864
0.310400009155,0.000967327479294,1.01893640329e-16,0.0374297738473,-0.0696530714287
0.313599944115,0.00096551227978,6.79297261928e-17,0.0378593165326,-0.0696532718901
0.316799998283,0.000963697012644,3.39645467764e-17,0.0382888752199,-0.069653472359
0.320000052452,0.000961881745705,-6.4012393994e-22,0.0387184339608,-0.0696536728279
0.323199987411,0.000960077188589,-3.43663339124e-17,0.0391508495362,-0.0696538755373
0.32640004158,0.000958272564246,-6.87333079486e-17,0.0395832812207,-0.0696540782543
0.32959997654,0.00095646800713,-1.03099001737e-16,0.0400156967961,-0.0696542809637
0.332800030708,0.000954672640602,-1.68272845838e-17,0.0404506537647,-0.0696544856886
0.335999965668,0.000952878663487,8.66751340464e-17,0.0408859552812,-0.0696546906928
0.339200019836,0.000951084619539,1.90181408521e-16,0.0413212730143,-0.0696548957046
0.342399954796,0.000949298530938,2.16362448865e-16,0.0417587488172,-0.069655102465
0.345600008965,0.000947515005353,2.1677019172e-16,0.0421969656934,-0.0696553098187
0.348799943924,0.000945731546208,2.17177919385e-16,0.042635166245,-0.0696555171646
0.351999998093,0.000943954555965,1.95725848378e-16,0.0430752032713,-0.0696557260114
0.355199933052,0.000942181553123,1.61158688206e-16,0.0435163159954,-0.0696559357465
0.358399987221,0.000940408484231,1.2659024028e-16,0.0439574451524,-0.0696561454893
0.361600041389,0.000938640613105,1.27002085757e-16,0.0444000370609,-0.0696563564507
0.364799976349,0.000936878005262,1.62391928928e-16,0.044844075138,-0.0696565686226
0.368000030518,0.000935115331756,1.97783090501e-16,0.045288129757,-0.0696567808025
0.371199965477,0.000933356599177,1.93514128228e-16,0.0457332697987,-0.0696569939063
0.374400019646,0.000931604260108,1.2314437129e-16,0.0461802631043,-0.0696572085712
0.377599954605,0.000929851986318,5.27772357842e-17,0.0466272397584,-0.0696574232281
0.380800008774,0.000928102215723,8.90031679317e-18,0.047074971056,-0.0696576385263
0.383999943733,0.000926360215397,4.45000919662e-17,0.0475248995545,-0.0696578557167
0.387199997902,0.000924618150175,8.01011933611e-17,0.0479748448146,-0.0696580729151
0.390399932861,0.000922877426343,1.02326491345e-16,0.048425143911,-0.0696582904281
0.39359998703,0.000921145574732,3.0914334342e-17,0.0488780544371,-0.0696585102088
0.396800041199,0.000919413723122,-4.04978226605e-17,0.0493309649632,-0.0696587299895
0.399999976158,0.000917681936027,-1.11907319398e-16,0.0497838586173,-0.069658949762
0.403200030327,0.000915960238098,-4.00746828332e-17,0.0502397477509,-0.0696591721742
0.406399965286,0.000914238604354,3.1755944805e-17,0.0506956199153,-0.069659394578
0.409600019455,0.000912516906472,1.03589248397e-16,0.0511515090627,-0.0696596169902
0.412799954414,0.000910804104887,4.93446924633e-17,0.0516099991665,-0.0696598417398
0.416000008583,0.000909092501203,-2.29122413484e-17,0.0520688803342,-0.0696600668328
0.419199943542,0.00090738096128,-9.51664834251e-17,0.0525277444074,-0.0696602919175
0.422399997711,0.000905676883753,-1.1339173968e-16,0.0529888796409,-0.0696605190586
0.425599932671,0.000903975378472,-1.13605422372e-16,0.0534507490653,-0.0696607468739
0.428799986839,0.000902273809803,-1.13819113026e-16,0.053912635696,-0.0696609746978
0.432000041008,0.0009005784763,-9.11188196625e-17,0.0543764091861,-0.0696612042597
0.435199975967,0.000898886946827,-5.46718009668e-17,0.0548412974478,-0.0696614348558
0.438400030136,0.000897195354338,-1.82234244863e-17,0.0553062030283,-0.0696616654605
0.441599965096,0.000895508783549,-1.84391718494e-17,0.0557726074809,-0.0696618974724
0.444800019264,0.00089382710875,-5.53187176641e-17,0.0562405455419,-0.0696621309085
0.447999954224,0.000892145496598,-9.21968896319e-17,0.0567084661712,-0.069662364336
0.451200008392,0.000890467519121,-8.75054508353e-17,0.0571775465012,-0.069662598853
0.454399943352,0.000888795766144,-1.35316214138e-17,0.0576485130724,-0.0696628351627
0.45759999752,0.000887123950887,6.04449638035e-17,0.0581194971887,-0.0696630714811
0.46079993248,0.000885454648127,1.15980972389e-16,0.0585912286108,-0.0696633085241
0.463999986649,0.000883792634606,1.16199748602e-16,0.0590652724015,-0.069663547776
0.467200040817,0.000882130621085,1.16418524815e-16,0.0595393161922,-0.069663787028
0.470399975777,0.000880469887449,1.16637454144e-16,0.0600137264713,-0.0696640266441
0.473600029945,0.000878817618196,1.16857520546e-16,0.0604908435996,-0.0696642688811
0.476799964905,0.000877165410494,1.1707757875e-16,0.0609679429542,-0.069664511109
0.480000019073,0.000875513141331,1.17296941893e-16,0.0614450601113,-0.069664753346
0.483199954033,0.000873870620405,4.20066184971e-17,0.0619252463962,-0.0696649986107
0.486400008202,0.00087222803829,-3.32865097384e-17,0.0624054505697,-0.0696652438845
0.489599943161,0.000870585517364,-1.08576833134e-16,0.0628856368545,-0.0696654891493
0.49279999733,0.000868951361679,-5.17203034421e-17,0.0633685541878,-0.069665737126
0.495999932289,0.000867318470736,2.40140372623e-17,0.0638518411544,-0.0696659854797
0.499199986458,0.000865685518962,9.97511993482e-17,0.0643351461251,-0.0696662338427
0.502400040627,0.00086405974763,6.15470983985e-17,0.0648207870522,-0.0696664845618
0.505599975586,0.000862436430209,-1.46338781177e-17,0.0653071884965,-0.069666736057
0.508800029755,0.000860813052313,-9.0817692654e-17,0.0657936080611,-0.0696669875616
0.511999964714,0.000859195683312,-9.55084124372e-17,0.0662819647209,-0.0696672410533
0.515200018883,0.000857581823164,-5.73045137691e-17,0.0667715127205,-0.0696674957524
0.518399953842,0.000855968023135,-1.9102038283e-17,0.0672610424833,-0.069667750442
0.521600008011,0.000854358893936,-1.93278273675e-17,0.067752161636,-0.0696680067649
0.52479994297,0.000852754555499,-5.79822220871e-17,0.0682448336026,-0.0696682647021
0.527999997139,0.000851150157294,-9.66380568244e-17,0.068737523923,-0.0696685226489
0.531199932098,0.000849549346058,-9.17219221036e-17,0.0692313794085,-0.069668781824
0.534399986267,0.000847954354323,-1.41822837349e-17,0.0697272259804,-0.069669043072
0.537600040436,0.000846359362587,6.33573546338e-17,0.0702230725523,-0.0696693043201
0.540799975395,0.000844766768021,1.31345113704e-16,0.0707196931837,-0.0696695663972
0.544000029564,0.000843181127604,1.70687543924e-16,0.0712187099825,-0.0696698310003
0.547199964523,0.000841595546255,2.10028508549e-16,0.0717177081918,-0.0696700955936
0.550400018692,0.000840011067969,2.34673966133e-16,0.0722171230457,-0.0696703606229
0.553599953651,0.000838434782765,1.56450646387e-16,0.0727193053838,-0.0696706286254
0.55680000782,0.000836858438839,7.82244125356e-17,0.0732215064301,-0.0696708966379
0.55999994278,0.000835282153635,1.09278936415e-21,0.0737236887682,-0.0696711646403
0.563199996948,0.000833715051566,0,0.0742290880826,-0.0696714361166
0.566399931908,0.000832148008003,0,0.0747344686145,-0.0696717075827
0.569599986076,0.000830580906063,0,0.0752398679736,-0.069671979059
0.572800040245,0.000829021843464,0,0.0757480782089,-0.0696722536141
0.575999975204,0.000827463987359,0,0.0762566710445,-0.0696725285987
0.579200029373,0.000825906073219,0,0.0767652828271,-0.0696728035937
0.582399964333,0.000824355067382,0,0.0772762955334,-0.0696730812586
0.585600018501,0.000822806287174,0,0.0777881338952,-0.0696733598274
0.588799953461,0.00082125756466,0,0.07829995319,-0.0696736383857
0.592000007629,0.000819714459652,2.51749162073e-17,0.0788138170264,-0.0696739192227
0.595199942589,0.00081817481718,6.54535442047e-17,0.0793288769807,-0.0696742014103
0.598399996758,0.00081663511735,1.05733672728e-16,0.079843956123,-0.0696744836083
0.601599991322,0.000815099959706,1.05733485163e-16,0.080360653162,-0.0696747676436
0.604799985886,0.000813569315528,6.54541069021e-17,0.0808789776765,-0.0696750535213
0.60799998045,0.00081203867135,2.51747286415e-17,0.081397302191,-0.0696753393991
0.611199975014,0.000810511392413,3.05666622221e-17,0.0819168526677,-0.0696756266798
0.614399969578,0.000808989722282,1.12078394096e-16,0.0824384464401,-0.0696759162988
0.617599964142,0.000807468052151,1.9359012597e-16,0.0829600402125,-0.0696762059177
0.620799958706,0.000805948612305,2.343473204e-16,0.0834824548568,-0.069676496486
0.624000012875,0.000804435835429,1.52834070249e-16,0.0840073420009,-0.0696767899079
0.627200007439,0.00080292308673,7.13223383745e-17,0.0845322193684,-0.0696770833244
0.630400002003,0.000801411446718,0,0.0850575090003,-0.0696773772227
0.633599996567,0.000799907567145,0,0.0855856843457,-0.0696776744935
0.636799991131,0.000798403687571,0,0.086113859691,-0.0696779717643
0.639999985695,0.000796899807998,0,0.0866420350364,-0.0696782690351
0.643199980259,0.00079540474555,0,0.0871735227882,-0.0696785702172
0.646399974823,0.000793909683102,0,0.08770501054,-0.0696788713994
0.649599969387,0.000792414620654,0,0.0882364982918,-0.0696791725815
0.652799963951,0.000790927227911,3.65098718086e-17,0.0887708970468,-0.0696794772363
0.655999958515,0.000789440930894,7.82356894058e-17,0.0893057116794,-0.0696797823872
0.659200012684,0.000787954606192,1.19962284208e-16,0.0898405362738,-0.0696800875437
0.662400007248,0.000786474844774,1.30577955695e-16,0.0903778569844,-0.0696803957144
0.665600001812,0.000784997261795,1.30824029173e-16,0.090916013018,-0.0696807048917
0.668799996376,0.000783519678816,1.31070102652e-16,0.0914541690516,-0.0696810140689
0.67199999094,0.000782047510205,1.04929825413e-16,0.0919944225746,-0.0696813257989
0.675199985504,0.000780578590174,6.29579343375e-17,0.0925359345754,-0.0696816390606
0.678399980068,0.000779109670142,2.09860432616e-17,0.0930774465763,-0.0696819523222
0.681599974632,0.00077764505617,0,0.093620643859,-0.0696822676551
0.684799969196,0.000776184748295,0,0.0941655264394,-0.0696825850594
0.68799996376,0.00077472444042,0,0.0947104090197,-0.0696829024637
0.691199958324,0.000773267343105,1.60192465425e-17,0.0952565610386,-0.0696832214434
0.694400012493,0.000771815569852,5.87388950349e-17,0.0958048390691,-0.0696835430548
0.697600007057,0.000770363823641,1.01457747825e-16,0.0963531068873,-0.0696838646603
0.700800001621,0.000768914205346,1.01330785419e-16,0.096902224711,-0.0696841873309
0.703999996185,0.0007674709706,-2.73296323369e-17,0.0974538924716,-0.0696845131965
0.707199990749,0.000766027735855,-1.55990050093e-16,0.0980055602323,-0.0696848390621
0.710399985313,0.000764585558809,-2.52422045199e-16,0.0985576548316,-0.0696851654676
0.713599979877,0.000763150785627,-1.23256282357e-16,0.0991127372857,-0.0696854956524
0.716799974442,0.000761716012444,5.9094804843e-18,0.0996678197398,-0.0696858258373
0.719999969006,0.000760281239262,1.35075243326e-16,0.100222902194,-0.0696861560222
0.72319996357,0.000758854877992,9.18518482043e-17,0.100781414123,-0.0696864905858
0.726399958134,0.000757428516762,4.8627650328e-17,0.101339926067,-0.0696868251494
0.729600012302,0.000756002128964,5.40264733698e-18,0.101898448415,-0.0696871597193
0.732800006866,0.00075458308511,-7.65379252382e-17,0.102459974183,-0.0696874981666
0.736000001431,0.000753165086513,-1.64008966969e-16,0.103021930462,-0.0696878371688
0.739199995995,0.000751747087915,-2.51480008699e-16,0.103583886741,-0.0696881761709
0.742399990559,0.000750335324548,-2.07743876855e-16,0.104148437451,-0.069688518547
0.745599985123,0.000748925639553,-1.20272835124e-16,0.104713852955,-0.0696888620477
0.748799979687,0.000747515954558,-3.28017933937e-17,0.105279268459,-0.0696892055484
0.751999974251,0.000746111435086,-2.76579805186e-17,0.105846855308,-0.0696895518984
0.755199968815,0.00074471001495,-7.19108729897e-17,0.106415744973,-0.0696898999581
0.758399963379,0.000743308594814,-1.16163765461e-16,0.106984634639,-0.0696902480177
0.761599957943,0.000741911282822,-9.3907760178e-17,0.107555268853,-0.069690598387
0.764800012112,0.000740518053138,-5.13934546239e-18,0.108127658325,-0.0696909510728
0.768000006676,0.000739124849404,8.36274158406e-17,0.108700037136,-0.069691303752
0.77120000124,0.000737734708808,1.22413087467e-16,0.109273730036,-0.0696916581863
