arc_length,density,velocity_0,velocity_1,velocity_2
0,0.00262375316796,0,-0.498822250215,0.0350391904359
0.0032000541687,0.0026195234271,0,-0.498806852627,0.0238572955182
0.00639998912811,0.0026152938438,0,-0.498791455613,0.0126758171515
0.00960004329681,0.00261106410294,0,-0.498776058025,0.00149392223386
0.0127999782562,0.00260625009856,0,-0.498816589958,4.30737837068e-05
0.0160000324249,0.00260135243146,0,-0.498865112739,-1.78275071389e-05
0.0191999673843,0.0025964549468,0,-0.498913633713,-7.87265292731e-05
0.022400021553,0.00259157881517,0,-0.498960275694,-4.77596536752e-05
0.0255999565125,0.00258671004363,0,-0.499006289008,1.38286003284e-05
0.0288000106812,0.00258184109071,0,-0.499052304035,7.54191487199e-05
0.0319999456406,0.00257699015954,0,-0.499096891654,6.01541844851e-05
0.0351999998093,0.00257214975247,0,-0.499140625469,-1.22579889949e-06
0.038400053978,0.00256730934539,0,-0.499184359285,-6.26057822841e-05
0.0415999889374,0.00256248330755,0,-0.499226877104,-6.22569617147e-05
0.0448000431061,0.00255767127895,0,-0.499268182127,-1.8103589582e-07
0.0479999780655,0.00255285942962,0,-0.499309485612,6.18925774538e-05
0.0512000322342,0.00254805798068,0,-0.499349895235,7.74910776455e-05
0.0543999671936,0.0025432743424,0,-0.499388811102,1.56308529335e-05
0.0576000213623,0.00253849052592,0,-0.499427728418,-4.62316762983e-05
0.0607999563217,0.00253371389882,0,-0.499466034295,-7.69871823338e-05
0.0640000104904,0.00252895812904,0,-0.499502511487,-1.44221458417e-05
0.0671999454498,0.00252420253641,0,-0.499538987319,4.81405599606e-05
0.0703999996185,0.00251945025186,0,-0.49957515844,9.50915650211e-05
0.0736000537872,0.00251472236435,0,-0.499609187039,3.27426050616e-05
0.0767999887466,0.00250999465295,0,-0.49964321437,-2.96040322575e-05
0.0800000429153,0.00250526676582,0,-0.499677242935,-9.1951240333e-05
0.0831999778748,0.0025005667722,0,-0.499708794472,-2.8895680772e-05
0.0864000320435,0.00249586660348,0,-0.499740347184,3.41622278392e-05
0.0895999670029,0.00249116660986,0,-0.499771898722,9.72177874001e-05
0.0928000211716,0.00248649055268,0,-0.49980126586,5.01165846781e-05
0.095999956131,0.00248181811432,0,-0.49983031967,-1.27203817818e-05
0.0992000102997,0.00247714550189,0,-0.499859374562,-7.55596891487e-05
0.102399945259,0.00247249360877,0,-0.499886539502,-4.36049255999e-05
0.105599999428,0.00246784839108,0,-0.499913075803,1.99496450231e-05
0.108800053596,0.00246320317338,0,-0.499939612104,8.35042156461e-05
0.111999988556,0.00245857514968,0,-0.499964557192,6.7753008629e-05
0.115200042725,0.0024539571661,0,-0.49998854908,4.41940515945e-06
0.118399977684,0.00244933935455,0,-0.500012540073,-5.89118389895e-05
0.121600031853,0.00244473490826,0,-0.500035250154,-5.85508185141e-05
0.124799966812,0.00244014417015,0,-0.500056677641,5.50184652054e-06
0.128000020981,0.00243555326102,0,-0.500078105926,6.95568977514e-05
0.13119995594,0.00243097261579,0,-0.500098561922,8.56544198505e-05
0.134400010109,0.00242640862238,0,-0.500117399433,2.18225393119e-05
0.137599945068,0.00242184479899,0,-0.500136236242,-4.20069633442e-05
0.140799999237,0.00241728749496,0,-0.500154421339,-7.37414772976e-05
0.144000053406,0.00241275025946,0,-0.500170649157,-9.18209792051e-06
0.147199988365,0.00240821319298,0,-0.50018687637,5.5374876473e-05
0.150400042534,0.00240367928294,0,-0.500202774463,0.00010382098653
0.153599977493,0.00239916881651,0,-0.500216364229,3.9489212081e-05
0.156800031662,0.00239465818204,0,-0.500229954501,-2.4844958962e-05
0.159999966621,0.00239014771561,0,-0.500243544267,-8.91767334109e-05
0.16320002079,0.00238566352598,0,-0.50025447802,-2.4110354271e-05
0.16639995575,0.00238117950364,0,-0.50026541134,4.09548060808e-05
0.169600009918,0.00237669531426,0,-0.500276345068,0.000106022390348
0.172799944878,0.00237223429489,0,-0.50028492918,5.74219778269e-05
0.175999999046,0.00236777639554,0,-0.500293178004,-7.41852988036e-06
0.179200053215,0.00236331849619,0,-0.500301426827,-7.22590375876e-05
0.182399988174,0.00235888036444,0,-0.500307647327,-3.9283951284e-05
0.185600042343,0.002354448601,0,-0.500313192073,2.62957440748e-05
0.188799977303,0.00235001700264,0,-0.500318736613,9.18729964409e-05
0.192000031471,0.00234560147838,0,-0.500322573293,7.5620978817e-05
0.195199966431,0.00234119586172,0,-0.500325385031,1.02724898103e-05
0.198400020599,0.00233679008094,0,-0.500328196873,-5.50784336667e-05
0.201599955559,0.00233239737892,0,-0.500329632531,-5.47063441373e-05
0.204800009727,0.00232801742848,0,-0.500329692098,1.13893982305e-05
0.207999944687,0.0023236376412,0,-0.500329751662,7.74826783818e-05
0.211199998856,0.00231926732021,0,-0.500328768157,9.40936643309e-05
0.214400053024,0.00231491304867,0,-0.50032604616,2.82282128034e-05
0.217599987984,0.00231055893933,0,-0.500323324265,-3.76347850863e-05
0.220800042152,0.00230621105014,0,-0.500319901953,-7.03785468808e-05
0.223999977112,0.0023018824682,0,-0.500314379018,-3.76527319353e-06
0.227200031281,0.002297553725,0,-0.500308855878,6.2850482082e-05
0.23039996624,0.00229322831511,0,-0.500302979114,0.000112840241581
0.233600020409,0.00228892495059,0,-0.500294625078,4.64561163036e-05
0.236799955368,0.00228462174638,0,-0.500286271354,-1.99255360147e-05
0.240000009537,0.00228031838197,0,-0.500277917306,-8.6309039534e-05
0.243199944496,0.00227604040671,0,-0.500266713003,-1.91717763196e-05
0.246399998665,0.00227176227208,0,-0.500255508282,4.79679880035e-05
0.249600052834,0.00226748413744,0,-0.500244303562,0.000115107752327
0.252799987793,0.00226322810847,0,-0.500230578513,6.49563783875e-05
0.256000041962,0.0022589750558,0,-0.500216492884,-1.95059997972e-06
0.259199976921,0.00225472216157,0,-0.500202407781,-6.88550859099e-05
0.26240003109,0.00225048781006,0,-0.500186146473,-3.48311371495e-05
0.265599966049,0.00224625984981,0,-0.500169160567,3.28341420914e-05
0.268800020218,0.00224203173206,0,-0.500152174029,0.000100501942112
0.271999955177,0.0022378192642,0,-0.500133355933,8.37316353073e-05
0.275200009346,0.00223361593517,0,-0.500113437784,1.62975906256e-05
0.278399944305,0.00222941276272,0,-0.500093520377,-5.11339419846e-05
0.281599998474,0.00222522175521,0,-0.500072126336,-5.07519651307e-05
0.284800052643,0.00222104306957,0,-0.500049256361,1.74479280111e-05
0.287999987602,0.0022168645396,0,-0.500026387238,8.56452805518e-05
0.291200041771,0.00221269504127,0,-0.500002398607,0.000102782015531
0.29439997673,0.00220854100929,0,-0.499976546584,3.48191890597e-05
0.297600030899,0.00220438682256,0,-0.499950693598,-3.31461692754e-05
0.300799965858,0.00220023887909,0,-0.499924090752,-6.69353880027e-05
0.304000020027,0.00219610904764,0,-0.499895234324,1.80068674119e-06
0.307199954987,0.00219197937004,0,-0.499866378971,7.05342009101e-05
0.310400009155,0.00218785256522,0,-0.499837143144,0.000122115247694
0.313599944115,0.00218374709919,0,-0.499805252784,5.36168458236e-05
0.316799998283,0.00217964148022,0,-0.499773361236,-1.48841078635e-05
0.320000052452,0.0021755358617,0,-0.499741469631,-8.33824952913e-05
0.323199987411,0.00217145446532,0,-0.499706523619,-1.41086998463e-05
0.32640004158,0.00216737291688,0,-0.499671576306,5.51676763012e-05
0.32959997654,0.00216329152049,0,-0.499636630294,0.000124441471746
0.332800030708,0.00215923091022,0,-0.499598981038,7.26906641577e-05
0.335999965668,0.00215517344234,0,-0.499560947198,3.6523707654e-06
0.339200019836,0.00215111582332,0,-0.49952291194,-6.5388494556e-05
0.342399954796,0.0021470761967,0,-0.49948254657,-3.02839119645e-05
0.345600008965,0.00214304236678,0,-0.499441402506,3.9536916992e-05
0.348799943924,0.00213900868714,0,-0.499400259974,0.000109355144964
0.351999998093,0.00213498963804,0,-0.499357152503,9.20484679266e-05
0.355199933052,0.00213097960716,0,-0.499312868596,2.24659320513e-05
0.358399987221,0.00212696942688,0,-0.499268583038,-4.71191960281e-05
0.361600041389,0.00212297100226,0,-0.499222716171,-4.67260499862e-05
0.364799976349,0.00211898448149,0,-0.499175269806,2.36407936445e-05
0.368000030518,0.0021149978122,0,-0.499127821674,9.40102586977e-05
0.371199965477,0.00211102005602,0,-0.49907917694,0.000111690431106
0.374400019646,0.00210705675987,0,-0.499028533031,4.15566540814e-05
0.377599954605,0.00210309361137,0,-0.49897789101,-2.85745103006e-05
0.380800008774,0.00209913612428,0,-0.498926442828,-6.34440997106e-05
0.383999943733,0.00209519621102,0,-0.498872583849,7.47557487291e-06
0.387199997902,0.00209125615099,0,-0.498818722863,7.83978914739e-05
0.390399932861,0.00208731912475,0,-0.498764457599,0.000131619305458
0.39359998703,0.00208340216459,0,-0.49870734581,6.0932457983e-05
0.396800041199,0.00207948520444,0,-0.498650234022,-9.7543894915e-06
0.399999976158,0.0020755683902,0,-0.498593124361,-8.04386037203e-05
0.403200030327,0.00207167439439,0,-0.498532740263,-8.95984966776e-06
0.406399965286,0.00206778054375,0,-0.498472358398,6.25169036162e-05
0.409600019455,0.00206388654804,0,-0.498411974285,0.000133996319671
0.412799954414,0.00206001267288,0,-0.498348699248,8.05934941642e-05
0.416000008583,0.00205614150699,0,-0.498285008553,9.34911918407e-06
0.419199943542,0.0020522704853,0,-0.498221320231,-6.18926017812e-05
0.422399997711,0.00204841634114,0,-0.498155133326,-2.56745996362e-05
0.425599932671,0.00204456801457,0,-0.4980881168,4.63635128373e-05
0.428799986839,0.00204071954464,0,-0.498021097779,0.000118404308994
0.432000041008,0.00203688517664,0,-0.497951976788,0.000100539856904
0.435199975967,0.00203305941213,0,-0.497881597265,2.87361365089e-05
0.438400030136,0.00202923350509,0,-0.497811215121,-4.30702588373e-05
0.441599965096,0.00202541895552,0,-0.497739143108,-4.26698902118e-05
0.444800019264,0.0020216154791,0,-0.497665375873,2.99365997274e-05
0.447999954224,0.00201781214437,0,-0.497591611385,0.00010254038491
0.451200008392,0.00201401703011,0,-0.497516561488,0.000120779671279
0.454399943352,0.00201023599365,0,-0.497439376692,4.84094227205e-05
0.45759999752,0.00200645481634,0,-0.497362189021,-2.39635218946e-05
0.46079993248,0.00200267932149,0,-0.497284143645,-5.99496209596e-05
0.463999986649,0.00199892031254,0,-0.497203513345,1.32269097651e-05
0.467200040817,0.0019951613036,0,-0.497122883045,8.64034404897e-05
0.470399975777,0.00199140518935,0,-0.497041820954,0.000141313107068
0.473600029945,0.00198766821881,0,-0.496957712124,6.83690479923e-05
0.476799964905,0.00198393138747,0,-0.496873606428,-4.57229375199e-06
0.480000019073,0.00198019441713,0,-0.496789497565,-7.75149866476e-05
0.483199954033,0.00197647949418,0,-0.49670189105,-3.76678189339e-06
0.486400008202,0.00197276443283,0,-0.49661428127,6.99841702513e-05
0.489599943161,0.00196904950987,0,-0.496526674755,0.000143732375006
0.49279999733,0.0019653535064,0,-0.49643596978,8.86232408163e-05
0.495999932289,0.00196166036337,0,-0.496344825981,1.51062043304e-05
0.499199986458,0.00195796708276,0,-0.496253678786,-5.84135709343e-05
0.502400040627,0.001954290042,0,-0.496159861532,-2.1045657304e-05
0.505599975586,0.00195061855121,0,-0.496065157804,5.32813618713e-05
0.508800029755,0.00194694692364,0,-0.495970450547,0.00012761115
0.511999964714,0.00194328888626,0,-0.495873498694,0.00010917214864
0.515200018883,0.00193963878479,0,-0.495775194334,3.50720186652e-05
0.518399953842,0.00193598881928,0,-0.495676893636,-3.90253509116e-05
0.521600008011,0.0019323494177,0,-0.495576779297,-3.86192263895e-05
0.52479994297,0.00192872085128,0,-0.495474858757,3.62910558324e-05
0.527999997139,0.0019250921497,0,-0.49537293442,0.000111204128737
0.531199932098,0.00192147156068,0,-0.495269642366,0.000130018643654
0.534399986267,0.00191786413351,0,-0.495164060428,5.53334834187e-05
0.537600040436,0.00191425670634,0,-0.49505847849,-1.93516768164e-05
0.540799975395,0.00191065470081,0,-0.494951980338,-5.64887784036e-05
0.544000029564,0.00190706842334,0,-0.494842717695,1.90120626087e-05
0.547199964523,0.00190348227946,0,-0.494733459121,9.4510091043e-05
0.550400018692,0.00189989863036,0,-0.494623731585,0.000151162823111
0.553599953651,0.00189633351139,0,-0.494510754228,7.58907239356e-05
0.55680000782,0.0018927682596,0,-0.494397772663,6.15820598561e-07
0.55999994278,0.00188920314063,0,-0.494284795306,-7.46562785772e-05
0.563199996948,0.00188565879099,0,-0.494168071537,1.43473416971e-06
0.566399931908,0.00188211457366,0,-0.494051352064,7.75250268259e-05
0.569599986076,0.00187857022431,0,-0.493934628243,0.000153618154124
0.572800040245,0.00187504405737,0,-0.493814595976,9.67438074581e-05
0.575999975204,0.00187152061915,0,-0.493694095569,2.08772369413e-05
0.579200029373,0.00186799704966,0,-0.493573590674,-5.49921598829e-05
0.582399964333,0.00186448910457,0,-0.493450236863,-1.64422267747e-05
0.585600018501,0.00186098619313,0,-0.493325927328,6.02477401555e-05
0.588799953461,0.00185748341218,0,-0.493201622423,0.00013693485021
0.592000007629,0.00185399333624,0,-0.49307491036,0.000117901287793
0.595199942589,0.00185051109145,0,-0.49294676153,4.14354579357e-05
0.598399996758,0.00184702871694,0,-0.492818607925,-3.50332205537e-05
0.601599991322,0.00184355661541,0,-0.492688522801,-3.46215117758e-05
0.604799985886,0.0018400947219,0,-0.492556503788,4.26684439646e-05
0.60799998045,0.0018366328284,0,-0.492424484775,0.000119958399705
0.611199975014,0.001833178546,0,-0.492291000332,0.00013936331474
0.614399969578,0.00182973694894,0,-0.492155073474,6.22919639283e-05
0.617599964142,0.00182629535187,0,-0.492019146616,-1.47793868831e-05
0.620799958706,0.00182285879901,0,-0.491882236822,-5.31101634531e-05
0.624000012875,0.00181943731567,0,-0.491742375483,2.47872849988e-05
0.627200007439,0.00181601589605,0,-0.491602516749,0.000102683282522
0.630400002003,0.00181259698394,0,-0.491462161425,0.000161131426351
0.633599996567,0.00180919562348,0,-0.491318330134,8.34511144519e-05
0.636799991131,0.00180579426301,0,-0.491174498844,5.77080255328e-06
0.639999985695,0.00180239290254,0,-0.491030667554,-7.19095093454e-05
0.643199980259,0.00179901148363,0,-0.490882839443,6.59719061764e-06
0.646399974823,0.00179563006471,0,-0.490735011331,8.51038905806e-05
0.649599969387,0.00179224864579,0,-0.490587183219,0.000163610590544
0.652799963951,0.00178888457332,0,-0.490435821753,0.000104917345474
0.655999958515,0.00178552297903,0,-0.490283955499,2.66231694758e-05
0.659200012684,0.00178216132213,0,-0.490132086416,-5.1672464867e-05
0.662400007248,0.0017788145093,0,-0.489977173146,-1.19031514345e-05
0.665600001812,0.00177547262341,0,-0.489821244249,6.72189480764e-05
0.668799996376,0.00177213073753,0,-0.489665315351,0.000146341047587
0.67199999094,0.00176880109723,0,-0.489506821057,0.000126690761249
0.675199985504,0.00176547880419,0,-0.489346787545,4.77777793116e-05
0.678399980068,0.00176215651115,0,-0.489186754033,-3.11352026263e-05
0.681599974632,0.00175884395706,0,-0.489024655854,-3.0720946528e-05
0.684799969196,0.00175554114201,0,-0.48886049299,4.90212864035e-05
0.68799996376,0.00175223832695,0,-0.488696330125,0.000128763519335
0.691199958324,0.00174894277317,0,-0.488530602798,0.000148777331882
0.694400012493,0.00174565926074,0,-0.488362264815,6.92390815878e-05
0.697600007057,0.00174237580946,0,-0.488193929967,-1.02976872155e-05
0.700800001621,0.00173909717087,0,-0.488024545854,-4.98575487185e-05
0.703999996185,0.00173583296985,0,-0.487852014047,3.05095886204e-05
0.707199990749,0.00173256876883,0,-0.48767948224,0.000110876725959
0.710399985313,0.00172930696,0,-0.487506420398,0.000171177180695
0.713599979877,0.00172606189638,0,-0.487329648329,9.10116047503e-05
0.716799974442,0.00172281683275,0,-0.48715287626,1.08460288053e-05
0.719999969006,0.00171957176913,0,-0.486976104191,-6.93195471397e-05
0.72319996357,0.00171634573061,0,-0.486795066668,1.1676552572e-05
0.726399958134,0.00171311969218,0,-0.486614029124,9.2673402756e-05
0.729600012302,0.00170989359366,0,-0.486432988208,0.000173671761626
0.732800006866,0.00170668410483,0,-0.48624817985,0.000113095442621
0.736000001431,0.00170347698005,0,-0.486062832847,3.22959996402e-05
0.739199995995,0.00170026985526,0,-0.485877485843,-4.85034433407e-05
0.742399990559,0.00169707683261,0,-0.485688887641,-7.47917986676e-06
0.745599985123,0.00169388851059,0,-0.485499205726,7.415222938e-05
0.748799979687,0.00169070018857,0,-0.485309523811,0.000155783638627
0.751999974251,0.00168752354934,0,-0.485117104661,0.000135496695732
0.755199968815,0.00168435391984,0,-0.484923043157,5.40582859409e-05
0.758399963379,0.00168118429033,0,-0.484728981654,-2.73801238506e-05
0.761599957943,0.00167802395217,0,-0.48453271754,-2.69650459179e-05
0.764800012112,0.0016748728469,0,-0.484334247059,5.53073391514e-05
0.768000006676,0.00167172180033,0,-0.484135780274,0.000137578191804
0.77120000124,0.00166857768162,0,-0.483935644462,0.000158215478683
0.774399995804,0.00166544510902,0,-0.483732727017,7.61329621538e-05
0.777599990368,0.00166231253643,0,-0.483529809571,-5.9495543754e-06
0.780799984932,0.00165918455527,0,-0.483325772971,-4.678244497e-05
0.783999979496,0.00165607034835,0,-0.48311837893,3.61327739072e-05
0.78719997406,0.00165295614142,0,-0.48291098489,0.000119047992784
0.790399968624,0.00164984421667,0,-0.482703025532,0.000181258008786
0.793599963188,0.00164674826773,0,-0.482491108803,9.85262051721e-05
0.796799957752,0.00164365231879,0,-0.482279192073,1.57944015582e-05
0.799999952316,0.00164055636986,0,-0.482067275344,-6.69374020558e-05
0.803200006485,0.00163747851437,0,-0.481850805762,1.66271524353e-05
0.806400001049,0.00163440071638,0,-0.481634340169,0.000100191699171
0.809599995613,0.0016313229184,0,-0.481417874576,0.000183756245906
0.812799990177,0.00162826090944,0,-0.481197387741,0.000121238111242
0.815999984741,0.00162520115598,0,-0.480976326464,3.78517995178e-05
0.819199979305,0.00162214140252,0,-0.480755265188,-4.55345122059e-05
0.822399973869,0.00161909510309,0,-0.480530737341,-3.21712869735e-06
0.825599968433,0.00161605328836,0,-0.480305053964,8.10017467132e-05
0.828799962997,0.00161301147364,0,-0.480079370587,0.000165220622124
0.831999957561,0.00160998080478,0,-0.479850768703,0.000144274976629
0.835199952126,0.00160695682361,0,-0.479620415668,6.02288947892e-05
0.838400006294,0.00160393278612,0,-0.479390058342,-2.38187525333e-05
0.841600000858,0.00160091766958,0,-0.479157357116,-2.34014913198e-05
0.844799995422,0.00159791141742,0,-0.478922307763,6.14767530971e-05
0.847999989986,0.00159490516527,0,-0.47868725841,0.000146354997514
0.85119998455,0.00159190552254,0,-0.478450429815,0.000167636920936
0.854399979115,0.00158891689544,0,-0.478210635839,8.29257657453e-05
0.857599973679,0.00158592826834,0,-0.477970841863,-1.78538944509e-06
0.860799968243,0.00158294402161,0,-0.477729855021,-4.3933677029e-05
0.863999962807,0.00157997291625,0,-0.477485289518,4.16090166294e-05
0.867199957371,0.00157700181088,0,-0.477240724014,0.000127151710288
0.870399951935,0.00157403288273,0,-0.476995555979,0.000191330362945
0.873600006104,0.00157107914134,0,-0.476746165237,0.000105947199293
0.876800000668,0.00156812545497,0,-0.47649677914,2.05656259999e-05
0.879999995232,0.00156517176868,0,-0.47624739302,-6.4815148246e-05
0.883199989796,0.00156223539918,0,-0.475993159182,2.13971151195e-05
0.88639998436,0.00155929902969,0,-0.475738925344,0.000107609378485
0.889599978924,0.00155636266019,0,-0.475484691507,0.00019382164185
0.892799973488,0.00155344135411,0,-0.475226172289,0.00012929806935
0.895999968052,0.00155052219995,0,-0.474967040871,4.32406914119e-05
0.899199962616,0.0015476030458,0,-0.474707909453,-4.28166865259e-05
0.90239995718,0.00154469672736,0,-0.474445084334,8.33207945273e-07
0.905599951744,0.00154179468762,0,-0.474181027944,8.77202021134e-05
0.908800005913,0.00153889259383,0,-0.473916966635,0.000174608814681
0.912000000477,0.00153600118801,0,-0.473649800459,0.000152978491667
0.915199995041,0.00153311616234,0,-0.473380768473,6.62398804654e-05
0.918399989605,0.00153023113667,0,-0.473111736486,-2.04987307357e-05
0.921599984169,0.00152735456821,0,-0.472840202871,-2.00841669749e-05
